"Wavelength, µm","n","k"
0.365,1.459,3.547
0.366,1.481,3.568
0.367,1.504,3.589
0.368,1.527,3.61
0.369,1.551,3.631
0.37,1.575,3.653
0.371,1.6,3.674
0.372,1.626,3.695
0.373,1.652,3.716
0.374,1.679,3.738
0.375,1.706,3.759
0.376,1.734,3.78
0.377,1.763,3.801
0.378,1.792,3.822
0.379,1.822,3.843
0.38,1.853,3.864
0.381,1.885,3.884
0.382,1.917,3.905
0.383,1.95,3.925
0.384,1.984,3.945
0.385,2.019,3.965
0.386,2.054,3.984
0.387,2.091,4.003
0.388,2.128,4.022
0.389,2.166,4.041
0.39,2.205,4.059
0.391,2.245,4.076
0.392,2.286,4.094
0.393,2.328,4.11
0.394,2.37,4.126
0.395,2.414,4.142
0.396,2.458,4.157
0.397,2.504,4.171
0.398,2.55,4.184
0.399,2.598,4.196
0.4,2.646,4.208
0.401,2.695,4.219
0.402,2.745,4.229
0.403,2.796,4.237
0.404,2.848,4.245
0.405,2.901,4.251
0.406,2.955,4.256
0.407,3.009,4.26
0.408,3.064,4.263
0.409,3.12,4.264
0.41,3.177,4.263
0.411,3.234,4.261
0.412,3.292,4.257
0.413,3.35,4.252
0.414,3.409,4.245
0.415,3.468,4.236
0.416,3.527,4.225
0.417,3.587,4.212
0.418,3.647,4.198
0.419,3.706,4.181
0.42,3.766,4.162
0.421,3.825,4.142
0.422,3.884,4.119
0.423,3.942,4.094
0.424,4,4.067
0.425,4.057,4.039
0.426,4.114,4.008
0.427,4.169,3.975
0.428,4.224,3.94
0.429,4.277,3.903
0.43,4.329,3.865
0.431,4.38,3.825
0.432,4.429,3.783
0.433,4.477,3.739
0.434,4.523,3.694
0.435,4.567,3.648
0.436,4.61,3.6
0.437,4.651,3.551
0.438,4.689,3.501
0.439,4.726,3.45
0.44,4.761,3.398
0.441,4.794,3.345
0.442,4.824,3.292
0.443,4.853,3.238
0.444,4.88,3.184
0.445,4.904,3.13
0.446,4.927,3.075
0.447,4.948,3.02
0.448,4.966,2.966
0.449,4.983,2.911
0.45,4.998,2.857
0.451,5.011,2.803
0.452,5.022,2.749
0.453,5.032,2.696
0.454,5.04,2.644
0.455,5.046,2.592
0.456,5.051,2.54
0.457,5.054,2.489
0.458,5.056,2.44
0.459,5.057,2.39
0.46,5.056,2.342
0.461,5.054,2.295
0.462,5.051,2.248
0.463,5.047,2.202
0.464,5.042,2.157
0.465,5.036,2.113
0.466,5.029,2.07
0.467,5.021,2.028
0.468,5.012,1.987
0.469,5.003,1.947
0.47,4.993,1.908
0.471,4.982,1.87
0.472,4.971,1.832
0.473,4.959,1.796
0.474,4.947,1.76
0.475,4.934,1.726
0.476,4.921,1.692
0.477,4.907,1.659
0.478,4.894,1.627
0.479,4.879,1.596
0.48,4.865,1.566
0.481,4.85,1.536
0.482,4.835,1.507
0.483,4.82,1.479
0.484,4.804,1.452
0.485,4.789,1.426
0.486,4.773,1.4
0.487,4.757,1.375
0.488,4.741,1.351
0.489,4.725,1.327
0.49,4.709,1.304
0.491,4.693,1.282
0.492,4.677,1.26
0.493,4.66,1.239
0.494,4.644,1.219
0.495,4.628,1.199
0.496,4.612,1.18
0.497,4.595,1.161
0.498,4.579,1.143
0.499,4.563,1.125
0.5,4.547,1.108
0.501,4.53,1.091
0.502,4.514,1.075
0.503,4.498,1.059
0.504,4.482,1.044
0.505,4.466,1.029
0.506,4.451,1.015
0.507,4.435,1.001
0.508,4.419,0.9877
0.509,4.403,0.9747
0.51,4.388,0.9621
0.511,4.372,0.9498
0.512,4.357,0.9379
0.513,4.342,0.9265
0.514,4.326,0.9154
0.515,4.311,0.9046
0.516,4.296,0.8942
0.517,4.281,0.8841
0.518,4.266,0.8744
0.519,4.252,0.865
0.52,4.237,0.8559
0.521,4.222,0.8472
0.522,4.208,0.8387
0.523,4.194,0.8306
0.524,4.179,0.8228
0.525,4.165,0.8152
0.526,4.151,0.808
0.527,4.137,0.801
0.528,4.123,0.7943
0.529,4.109,0.7879
0.53,4.095,0.7818
0.531,4.082,0.7759
0.532,4.068,0.7703
0.533,4.055,0.765
0.534,4.041,0.7599
0.535,4.028,0.7551
0.536,4.015,0.7505
0.537,4.002,0.7462
0.538,3.989,0.7421
0.539,3.976,0.7383
0.54,3.963,0.7347
0.541,3.95,0.7314
0.542,3.938,0.7283
0.543,3.925,0.7255
0.544,3.912,0.7229
0.545,3.9,0.7206
0.546,3.888,0.7184
0.547,3.875,0.7166
0.548,3.863,0.715
0.549,3.851,0.7136
0.55,3.839,0.7125
0.551,3.827,0.7116
0.552,3.815,0.711
0.553,3.804,0.7106
0.554,3.792,0.7105
0.555,3.78,0.7106
0.556,3.769,0.711
0.557,3.758,0.7116
0.558,3.746,0.7125
0.559,3.735,0.7137
0.56,3.724,0.7151
0.561,3.713,0.7169
0.562,3.702,0.7189
0.563,3.691,0.7211
0.564,3.68,0.7237
0.565,3.67,0.7266
0.566,3.659,0.7298
0.567,3.649,0.7332
0.568,3.639,0.737
0.569,3.628,0.7411
0.57,3.618,0.7456
0.571,3.609,0.7503
0.572,3.599,0.7555
0.573,3.589,0.7609
0.574,3.58,0.7667
0.575,3.571,0.7729
0.576,3.562,0.7795
0.577,3.553,0.7865
0.578,3.544,0.7938
0.579,3.536,0.8016
0.58,3.528,0.8097
0.581,3.52,0.8183
0.582,3.512,0.8273
0.583,3.505,0.8368
0.584,3.498,0.8467
0.585,3.492,0.8571
0.586,3.485,0.8679
0.587,3.48,0.8792
0.588,3.474,0.891
0.589,3.469,0.9033
0.59,3.465,0.916
0.591,3.461,0.9293
0.592,3.458,0.943
0.593,3.456,0.9572
0.594,3.454,0.9719
0.595,3.453,0.987
0.596,3.453,1.003
0.597,3.453,1.019
0.598,3.455,1.035
0.599,3.457,1.052
0.6,3.461,1.069
0.601,3.466,1.086
0.602,3.472,1.104
0.603,3.479,1.122
0.604,3.487,1.14
0.605,3.497,1.158
0.606,3.508,1.175
0.607,3.521,1.193
0.608,3.536,1.21
0.609,3.552,1.227
0.61,3.569,1.243
0.611,3.588,1.259
0.612,3.609,1.273
0.613,3.632,1.287
0.614,3.656,1.299
0.615,3.681,1.31
0.616,3.708,1.319
0.617,3.736,1.326
0.618,3.766,1.331
0.619,3.796,1.334
0.62,3.827,1.335
0.621,3.859,1.333
0.622,3.891,1.328
0.623,3.923,1.321
0.624,3.954,1.312
0.625,3.985,1.299
0.626,4.015,1.285
0.627,4.044,1.267
0.628,4.071,1.247
0.629,4.097,1.226
0.63,4.12,1.202
0.631,4.142,1.176
0.632,4.161,1.15
0.633,4.177,1.122
0.634,4.191,1.093
0.635,4.203,1.064
0.636,4.212,1.034
0.637,4.218,1.005
0.638,4.222,0.9756
0.639,4.224,0.9471
0.64,4.223,0.9194
0.641,4.221,0.8926
0.642,4.216,0.867
0.643,4.21,0.8427
0.644,4.202,0.8198
0.645,4.193,0.7984
0.646,4.182,0.7786
0.647,4.171,0.7605
0.648,4.158,0.7442
0.649,4.145,0.7297
0.65,4.131,0.717
0.651,4.116,0.7063
0.652,4.101,0.6975
0.653,4.086,0.6908
0.654,4.07,0.6862
0.655,4.055,0.6838
0.656,4.04,0.6836
0.657,4.026,0.6858
0.658,4.012,0.6906
0.659,3.998,0.6979
0.66,3.986,0.708
0.661,3.976,0.721
0.662,3.967,0.7371
0.663,3.961,0.7564
0.664,3.959,0.7789
0.665,3.96,0.8047
0.666,3.967,0.8335
0.667,3.98,0.8649
0.668,4.001,0.8981
0.669,4.032,0.9318
0.67,4.073,0.9637
0.671,4.127,0.9909
0.672,4.192,1.01
0.673,4.268,1.015
0.674,4.352,1.003
0.675,4.437,0.9705
0.676,4.518,0.9159
0.677,4.585,0.8418
0.678,4.634,0.7538
0.679,4.662,0.659
0.68,4.669,0.5646
0.681,4.659,0.4762
0.682,4.635,0.397
0.683,4.603,0.3286
0.684,4.565,0.2709
0.685,4.524,0.2231
0.686,4.482,0.1838
0.687,4.441,0.1517
0.688,4.402,0.1257
0.689,4.364,0.1047
0.69,4.328,0.08764
0.691,4.295,0.07387
0.692,4.263,0.06276
0.693,4.234,0.05379
0.694,4.206,0.04657
0.695,4.18,0.04077
0.696,4.156,0.03614
0.697,4.133,0.03247
0.698,4.112,0.02958
0.699,4.092,0.02735
0.7,4.073,0.02565
0.701,4.055,0.02437
0.702,4.039,0.0232
0.703,4.023,0.02209
0.704,4.009,0.02103
0.705,3.995,0.02002
0.706,3.981,0.01907
0.707,3.968,0.01816
0.708,3.956,0.01729
0.709,3.944,0.01648
0.71,3.932,0.0157
0.711,3.921,0.01497
0.712,3.91,0.01427
0.713,3.899,0.01362
0.714,3.889,0.013
0.715,3.879,0.01242
0.716,3.87,0.01187
0.717,3.86,0.01135
0.718,3.851,0.01087
0.719,3.842,0.01042
0.72,3.834,0.009996
0.721,3.825,0.009602
0.722,3.817,0.009236
0.723,3.809,0.008896
0.724,3.801,0.008582
0.725,3.793,0.008292
0.726,3.786,0.00802
0.727,3.778,0.007753
0.728,3.771,0.00749
0.729,3.764,0.007233
0.73,3.757,0.00698
0.731,3.75,0.006733
0.732,3.744,0.00649
0.733,3.737,0.006253
0.734,3.731,0.00602
0.735,3.725,0.005792
0.736,3.718,0.005569
0.737,3.712,0.005351
0.738,3.707,0.005137
0.739,3.701,0.004929
0.74,3.695,0.004725
0.741,3.689,0.004526
0.742,3.684,0.004332
0.743,3.678,0.004142
0.744,3.673,0.003957
0.745,3.668,0.003777
0.746,3.662,0.003601
0.747,3.657,0.00343
0.748,3.652,0.003263
0.749,3.647,0.003101
0.75,3.642,0.002944
0.751,3.637,0.002791
0.752,3.632,0.002642
0.753,3.628,0.002498
0.754,3.623,0.002358
0.755,3.618,0.002222
0.756,3.614,0.002091
0.757,3.609,0.001964
0.758,3.605,0.001842
0.759,3.601,0.001723
0.76,3.596,0.001609
0.761,3.592,0.001499
0.762,3.588,0.001394
0.763,3.584,0.001292
0.764,3.579,0.001194
0.765,3.575,0.001101
0.766,3.571,0.001011
0.767,3.567,0.0009257
0.768,3.563,0.0008442
0.769,3.56,0.0007666
0.77,3.556,0.000693
0.771,3.552,0.0006232
0.772,3.548,0.0005573
0.773,3.544,0.0004952
0.774,3.541,0.000437
0.775,3.537,0.0003825
0.776,3.533,0.0003317
0.777,3.53,0.0002847
0.778,3.526,0.0002414
0.779,3.523,0.0002017
0.78,3.519,0.0001657
0.781,3.516,0.0001333
0.782,3.513,0.0001045
0.783,3.509,0.00007926
0.784,3.506,0.00005755
0.785,3.503,0.00003934
0.786,3.5,0.00002462
0.787,3.496,0.00001336
0.788,3.493,0.000005525
0.789,3.49,0.000001102
0.79,3.487,0
0.791,3.484,0
0.792,3.481,0
0.793,3.478,0
0.794,3.475,0
0.795,3.472,0
0.796,3.469,0
0.797,3.466,0
0.798,3.463,0
0.799,3.46,0
0.8,3.458,0
0.801,3.455,0
0.802,3.452,0
0.803,3.449,0
0.804,3.447,0
0.805,3.444,0
0.806,3.441,0
0.807,3.439,0
0.808,3.436,0
0.809,3.433,0
0.81,3.431,0
0.811,3.428,0
0.812,3.426,0
0.813,3.423,0
0.814,3.421,0
0.815,3.418,0
0.816,3.416,0
0.817,3.414,0
0.818,3.411,0
0.819,3.409,0
0.82,3.406,0
0.821,3.404,0
0.822,3.402,0
0.823,3.399,0
0.824,3.397,0
0.825,3.395,0
0.826,3.393,0
0.827,3.39,0
0.828,3.388,0
0.829,3.386,0
0.83,3.384,0
0.831,3.382,0
0.832,3.379,0
0.833,3.377,0
0.834,3.375,0
0.835,3.373,0
0.836,3.371,0
0.837,3.369,0
0.838,3.367,0
0.839,3.365,0
0.84,3.363,0
0.841,3.361,0
0.842,3.359,0
0.843,3.357,0
0.844,3.355,0
0.845,3.353,0
0.846,3.351,0
0.847,3.349,0
0.848,3.347,0
0.849,3.345,0
0.85,3.343,0
0.851,3.342,0
0.852,3.34,0
0.853,3.338,0
0.854,3.336,0
0.855,3.334,0
0.856,3.332,0
0.857,3.331,0
0.858,3.329,0
0.859,3.327,0
0.86,3.325,0
0.861,3.324,0
0.862,3.322,0
0.863,3.32,0
0.864,3.318,0
0.865,3.317,0
0.866,3.315,0
0.867,3.313,0
0.868,3.312,0
0.869,3.31,0
0.87,3.308,0
0.871,3.307,0
0.872,3.305,0
0.873,3.303,0
0.874,3.302,0
0.875,3.3,0
0.876,3.299,0
0.877,3.297,0
0.878,3.296,0
0.879,3.294,0
0.88,3.292,0
0.881,3.291,0
0.882,3.289,0
0.883,3.288,0
0.884,3.286,0
0.885,3.285,0
0.886,3.283,0
0.887,3.282,0
0.888,3.28,0
0.889,3.279,0
0.89,3.277,0
0.891,3.276,0
0.892,3.275,0
0.893,3.273,0
0.894,3.272,0
0.895,3.27,0
0.896,3.269,0
0.897,3.267,0
0.898,3.266,0
0.899,3.265,0
0.9,3.263,0
0.901,3.262,0
0.902,3.261,0
0.903,3.259,0
0.904,3.258,0
0.905,3.257,0
0.906,3.255,0
0.907,3.254,0
0.908,3.253,0
0.909,3.251,0
0.91,3.25,0
0.911,3.249,0
0.912,3.247,0
0.913,3.246,0
0.914,3.245,0
0.915,3.244,0
0.916,3.242,0
0.917,3.241,0
0.918,3.24,0
0.919,3.239,0
0.92,3.237,0
0.921,3.236,0
0.922,3.235,0
0.923,3.234,0
0.924,3.232,0
0.925,3.231,0
0.926,3.23,0
0.927,3.229,0
0.928,3.228,0
0.929,3.227,0
0.93,3.225,0
0.931,3.224,0
0.932,3.223,0
0.933,3.222,0
0.934,3.221,0
0.935,3.22,0
0.936,3.219,0
0.937,3.217,0
0.938,3.216,0
0.939,3.215,0
0.94,3.214,0
0.941,3.213,0
0.942,3.212,0
0.943,3.211,0
0.944,3.21,0
0.945,3.209,0
0.946,3.207,0
0.947,3.206,0
0.948,3.205,0
0.949,3.204,0
0.95,3.203,0
0.951,3.202,0
0.952,3.201,0
0.953,3.2,0
0.954,3.199,0
0.955,3.198,0
0.956,3.197,0
0.957,3.196,0
0.958,3.195,0
0.959,3.194,0
0.96,3.193,0
0.961,3.192,0
0.962,3.191,0
0.963,3.19,0
0.964,3.189,0
0.965,3.188,0
0.966,3.187,0
0.967,3.186,0
0.968,3.185,0
0.969,3.184,0
0.97,3.183,0
0.971,3.182,0
0.972,3.181,0
0.973,3.18,0
0.974,3.179,0
0.975,3.178,0
0.976,3.178,0
0.977,3.177,0
0.978,3.176,0
0.979,3.175,0
0.98,3.174,0
0.981,3.173,0
0.982,3.172,0
0.983,3.171,0
0.984,3.17,0
0.985,3.169,0
0.986,3.168,0
0.987,3.168,0
0.988,3.167,0
0.989,3.166,0
0.99,3.165,0
0.991,3.164,0
0.992,3.163,0
0.993,3.162,0
0.994,3.161,0
0.995,3.161,0
0.996,3.16,0
0.997,3.159,0
0.998,3.158,0
0.999,3.157,0
1,3.156,0
1.001,3.156,0
1.002,3.155,0
1.003,3.154,0
1.004,3.153,0
1.005,3.152,0
1.006,3.151,0
1.007,3.151,0
1.008,3.15,0
1.009,3.149,0
1.01,3.148,0
1.011,3.147,0
1.012,3.147,0
1.013,3.146,0
1.014,3.145,0
1.015,3.144,0
1.016,3.143,0
1.017,3.143,0
1.018,3.142,0
1.019,3.141,0
1.02,3.14,0
1.021,3.14,0
1.022,3.139,0
1.023,3.138,0
1.024,3.137,0
1.025,3.137,0
1.026,3.136,0
1.027,3.135,0
1.028,3.134,0
1.029,3.134,0
1.03,3.133,0
1.031,3.132,0
1.032,3.131,0
1.033,3.131,0
1.034,3.13,0
1.035,3.129,0
1.036,3.129,0
1.037,3.128,0
1.038,3.127,0
1.039,3.126,0
1.04,3.126,0
1.041,3.125,0
1.042,3.124,0
1.043,3.124,0
1.044,3.123,0
1.045,3.122,0
1.046,3.121,0
1.047,3.121,0
1.048,3.12,0
1.049,3.119,0
1.05,3.119,0
1.051,3.118,0
1.052,3.117,0
1.053,3.117,0
1.054,3.116,0
1.055,3.115,0
1.056,3.115,0
1.057,3.114,0
1.058,3.113,0
1.059,3.113,0
1.06,3.112,0
1.061,3.111,0
1.062,3.111,0
1.063,3.11,0
1.064,3.11,0
1.065,3.109,0
1.066,3.108,0
1.067,3.108,0
1.068,3.107,0
1.069,3.106,0
1.07,3.106,0
1.071,3.105,0
1.072,3.104,0
1.073,3.104,0
1.074,3.103,0
1.075,3.103,0
1.076,3.102,0
1.077,3.101,0
1.078,3.101,0
1.079,3.1,0
1.08,3.1,0
1.081,3.099,0
1.082,3.098,0
1.083,3.098,0
1.084,3.097,0
1.085,3.097,0
1.086,3.096,0
1.087,3.095,0
1.088,3.095,0
1.089,3.094,0
1.09,3.094,0
1.091,3.093,0
1.092,3.092,0
1.093,3.092,0
1.094,3.091,0
1.095,3.091,0
1.096,3.09,0
1.097,3.09,0
1.098,3.089,0
1.099,3.088,0
1.1,3.088,0
1.101,3.087,0
1.102,3.087,0
1.103,3.086,0
1.104,3.086,0
1.105,3.085,0
1.106,3.085,0
1.107,3.084,0
1.108,3.083,0
1.109,3.083,0
1.11,3.082,0
1.111,3.082,0
1.112,3.081,0
1.113,3.081,0
1.114,3.08,0
1.115,3.08,0
1.116,3.079,0
1.117,3.079,0
1.118,3.078,0
1.119,3.078,0
1.12,3.077,0
1.121,3.077,0
1.122,3.076,0
1.123,3.076,0
1.124,3.075,0
1.125,3.075,0
1.126,3.074,0
1.127,3.073,0
1.128,3.073,0
1.129,3.072,0
1.13,3.072,0
1.131,3.071,0
1.132,3.071,0
1.133,3.07,0
1.134,3.07,0
1.135,3.069,0
1.136,3.069,0
1.137,3.068,0
1.138,3.068,0
1.139,3.068,0
1.14,3.067,0
1.141,3.067,0
1.142,3.066,0
1.143,3.066,0
1.144,3.065,0
1.145,3.065,0
1.146,3.064,0
1.147,3.064,0
1.148,3.063,0
1.149,3.063,0
1.15,3.062,0
1.151,3.062,0
1.152,3.061,0
1.153,3.061,0
1.154,3.06,0
1.155,3.06,0
1.156,3.059,0
1.157,3.059,0
1.158,3.059,0
1.159,3.058,0
1.16,3.058,0
1.161,3.057,0
1.162,3.057,0
1.163,3.056,0
1.164,3.056,0
1.165,3.055,0
1.166,3.055,0
1.167,3.054,0
1.168,3.054,0
1.169,3.054,0
1.17,3.053,0
1.171,3.053,0
1.172,3.052,0
1.173,3.052,0
1.174,3.051,0
1.175,3.051,0
1.176,3.051,0
1.177,3.05,0
1.178,3.05,0
1.179,3.049,0
1.18,3.049,0
1.181,3.048,0
1.182,3.048,0
1.183,3.048,0
1.184,3.047,0
1.185,3.047,0
1.186,3.046,0
1.187,3.046,0
1.188,3.045,0
1.189,3.045,0
1.19,3.045,0
1.191,3.044,0
1.192,3.044,0
1.193,3.043,0
1.194,3.043,0
1.195,3.043,0
1.196,3.042,0
1.197,3.042,0
1.198,3.041,0
1.199,3.041,0
1.2,3.041,0
1.201,3.04,0
1.202,3.04,0
1.203,3.039,0
1.204,3.039,0
1.205,3.039,0
1.206,3.038,0
1.207,3.038,0
1.208,3.037,0
1.209,3.037,0
1.21,3.037,0
1.211,3.036,0
1.212,3.036,0
1.213,3.035,0
1.214,3.035,0
1.215,3.035,0
1.216,3.034,0
1.217,3.034,0
1.218,3.034,0
1.219,3.033,0
1.22,3.033,0
1.221,3.032,0
1.222,3.032,0
1.223,3.032,0
1.224,3.031,0
1.225,3.031,0
1.226,3.031,0
1.227,3.03,0
1.228,3.03,0
1.229,3.029,0
1.23,3.029,0
1.231,3.029,0
1.232,3.028,0
1.233,3.028,0
1.234,3.028,0
1.235,3.027,0
1.236,3.027,0
1.237,3.027,0
1.238,3.026,0
1.239,3.026,0
1.24,3.025,0
1.241,3.025,0
1.242,3.025,0
1.243,3.024,0
1.244,3.024,0
1.245,3.024,0
1.246,3.023,0
1.247,3.023,0
1.248,3.023,0
1.249,3.022,0
1.25,3.022,0
1.251,3.022,0
1.252,3.021,0
1.253,3.021,0
1.254,3.021,0
1.255,3.02,0
1.256,3.02,0
1.257,3.02,0
1.258,3.019,0
1.259,3.019,0
1.26,3.019,0
1.261,3.018,0
1.262,3.018,0
1.263,3.018,0
1.264,3.017,0
1.265,3.017,0
1.266,3.017,0
1.267,3.016,0
1.268,3.016,0
1.269,3.016,0
1.27,3.015,0
1.271,3.015,0
1.272,3.015,0
1.273,3.014,0
1.274,3.014,0
1.275,3.014,0
1.276,3.013,0
1.277,3.013,0
1.278,3.013,0
1.279,3.012,0
1.28,3.012,0
1.281,3.012,0
1.282,3.011,0
1.283,3.011,0
1.284,3.011,0
1.285,3.011,0
1.286,3.01,0
1.287,3.01,0
1.288,3.01,0
1.289,3.009,0
1.29,3.009,0
1.291,3.009,0
1.292,3.008,0
1.293,3.008,0
1.294,3.008,0
1.295,3.007,0
1.296,3.007,0
1.297,3.007,0
1.298,3.007,0
1.299,3.006,0
1.3,3.006,0
1.301,3.006,0
1.302,3.005,0
1.303,3.005,0
1.304,3.005,0
1.305,3.005,0
1.306,3.004,0
1.307,3.004,0
1.308,3.004,0
1.309,3.003,0
1.31,3.003,0
1.311,3.003,0
1.312,3.002,0
1.313,3.002,0
1.314,3.002,0
1.315,3.002,0
1.316,3.001,0
1.317,3.001,0
1.318,3.001,0
1.319,3,0
1.32,3,0
1.321,3,0
1.322,3,0
1.323,2.999,0
1.324,2.999,0
1.325,2.999,0
1.326,2.999,0
1.327,2.998,0
1.328,2.998,0
1.329,2.998,0
1.33,2.997,0
1.331,2.997,0
1.332,2.997,0
1.333,2.997,0
1.334,2.996,0
1.335,2.996,0
1.336,2.996,0
1.337,2.996,0
1.338,2.995,0
1.339,2.995,0
1.34,2.995,0
1.341,2.994,0
1.342,2.994,0
1.343,2.994,0
1.344,2.994,0
1.345,2.993,0
1.346,2.993,0
1.347,2.993,0
1.348,2.993,0
1.349,2.992,0
1.35,2.992,0
1.351,2.992,0
1.352,2.992,0
1.353,2.991,0
1.354,2.991,0
1.355,2.991,0
1.356,2.991,0
1.357,2.99,0
1.358,2.99,0
1.359,2.99,0
1.36,2.99,0
1.361,2.989,0
1.362,2.989,0
1.363,2.989,0
1.364,2.988,0
1.365,2.988,0
1.366,2.988,0
1.367,2.988,0
1.368,2.988,0
1.369,2.987,0
1.37,2.987,0
1.371,2.987,0
1.372,2.987,0
1.373,2.986,0
1.374,2.986,0
1.375,2.986,0
1.376,2.986,0
1.377,2.985,0
1.378,2.985,0
1.379,2.985,0
1.38,2.985,0
1.381,2.984,0
1.382,2.984,0
1.383,2.984,0
1.384,2.984,0
1.385,2.983,0
1.386,2.983,0
1.387,2.983,0
1.388,2.983,0
1.389,2.982,0
1.39,2.982,0
1.391,2.982,0
1.392,2.982,0
1.393,2.981,0
1.394,2.981,0
1.395,2.981,0
1.396,2.981,0
1.397,2.981,0
1.398,2.98,0
1.399,2.98,0
1.4,2.98,0
1.401,2.98,0
1.402,2.979,0
1.403,2.979,0
1.404,2.979,0
1.405,2.979,0
1.406,2.979,0
1.407,2.978,0
1.408,2.978,0
1.409,2.978,0
1.41,2.978,0
1.411,2.977,0
1.412,2.977,0
1.413,2.977,0
1.414,2.977,0
1.415,2.977,0
1.416,2.976,0
1.417,2.976,0
1.418,2.976,0
1.419,2.976,0
1.42,2.975,0
1.421,2.975,0
1.422,2.975,0
1.423,2.975,0
1.424,2.975,0
1.425,2.974,0
1.426,2.974,0
1.427,2.974,0
1.428,2.974,0
1.429,2.973,0
1.43,2.973,0
1.431,2.973,0
1.432,2.973,0
1.433,2.973,0
1.434,2.972,0
1.435,2.972,0
1.436,2.972,0
1.437,2.972,0
1.438,2.972,0
1.439,2.971,0
1.44,2.971,0
1.441,2.971,0
1.442,2.971,0
1.443,2.971,0
1.444,2.97,0
1.445,2.97,0
1.446,2.97,0
1.447,2.97,0
1.448,2.97,0
1.449,2.969,0
1.45,2.969,0
1.451,2.969,0
1.452,2.969,0
1.453,2.969,0
1.454,2.968,0
1.455,2.968,0
1.456,2.968,0
1.457,2.968,0
1.458,2.968,0
1.459,2.967,0
1.46,2.967,0
1.461,2.967,0
1.462,2.967,0
1.463,2.967,0
1.464,2.966,0
1.465,2.966,0
1.466,2.966,0
1.467,2.966,0
1.468,2.966,0
1.469,2.965,0
1.47,2.965,0
1.471,2.965,0
1.472,2.965,0
1.473,2.965,0
1.474,2.964,0
1.475,2.964,0
1.476,2.964,0
1.477,2.964,0
1.478,2.964,0
1.479,2.963,0
1.48,2.963,0
1.481,2.963,0
1.482,2.963,0
1.483,2.963,0
1.484,2.963,0
1.485,2.962,0
1.486,2.962,0
1.487,2.962,0
1.488,2.962,0
1.489,2.962,0
1.49,2.961,0
1.491,2.961,0
1.492,2.961,0
1.493,2.961,0
1.494,2.961,0
1.495,2.96,0
1.496,2.96,0
1.497,2.96,0
1.498,2.96,0
1.499,2.96,0
1.5,2.96,0
1.501,2.959,0
1.502,2.959,0
1.503,2.959,0
1.504,2.959,0
1.505,2.959,0
1.506,2.959,0
1.507,2.958,0
1.508,2.958,0
1.509,2.958,0
1.51,2.958,0
1.511,2.958,0
1.512,2.957,0
1.513,2.957,0
1.514,2.957,0
1.515,2.957,0
1.516,2.957,0
1.517,2.957,0
1.518,2.956,0
1.519,2.956,0
1.52,2.956,0
1.521,2.956,0
1.522,2.956,0
1.523,2.956,0
1.524,2.955,0
1.525,2.955,0
1.526,2.955,0
1.527,2.955,0
1.528,2.955,0
1.529,2.955,0
1.53,2.954,0
1.531,2.954,0
1.532,2.954,0
1.533,2.954,0
1.534,2.954,0
1.535,2.954,0
1.536,2.953,0
1.537,2.953,0
1.538,2.953,0
1.539,2.953,0
1.54,2.953,0
1.541,2.953,0
1.542,2.952,0
1.543,2.952,0
1.544,2.952,0
1.545,2.952,0
1.546,2.952,0
1.547,2.952,0
1.548,2.951,0
1.549,2.951,0
1.55,2.951,0
1.551,2.951,0
1.552,2.951,0
1.553,2.951,0
1.554,2.95,0
1.555,2.95,0
1.556,2.95,0
1.557,2.95,0
1.558,2.95,0
1.559,2.95,0
1.56,2.949,0
1.561,2.949,0
1.562,2.949,0
1.563,2.949,0
1.564,2.949,0
1.565,2.949,0
1.566,2.949,0
1.567,2.948,0
1.568,2.948,0
1.569,2.948,0
1.57,2.948,0
1.571,2.948,0
1.572,2.948,0
1.573,2.947,0
1.574,2.947,0
1.575,2.947,0
1.576,2.947,0
1.577,2.947,0
1.578,2.947,0
1.579,2.947,0
1.58,2.946,0
1.581,2.946,0
1.582,2.946,0
1.583,2.946,0
1.584,2.946,0
1.585,2.946,0
1.586,2.945,0
1.587,2.945,0
1.588,2.945,0
1.589,2.945,0
1.59,2.945,0
1.591,2.945,0
1.592,2.945,0
1.593,2.944,0
1.594,2.944,0
1.595,2.944,0
1.596,2.944,0
1.597,2.944,0
1.598,2.944,0
1.599,2.944,0
1.6,2.943,0
1.601,2.943,0
1.602,2.943,0
1.603,2.943,0
1.604,2.943,0
1.605,2.943,0
1.606,2.943,0
1.607,2.942,0
1.608,2.942,0
1.609,2.942,0
1.61,2.942,0
1.611,2.942,0
1.612,2.942,0
1.613,2.942,0
1.614,2.941,0
1.615,2.941,0
1.616,2.941,0
1.617,2.941,0
1.618,2.941,0
1.619,2.941,0
1.62,2.941,0
1.621,2.94,0
1.622,2.94,0
1.623,2.94,0
1.624,2.94,0
1.625,2.94,0
1.626,2.94,0
1.627,2.94,0
1.628,2.94,0
1.629,2.939,0
1.63,2.939,0
1.631,2.939,0
1.632,2.939,0
1.633,2.939,0
1.634,2.939,0
1.635,2.939,0
1.636,2.938,0
1.637,2.938,0
1.638,2.938,0
1.639,2.938,0
1.64,2.938,0
1.641,2.938,0
1.642,2.938,0
1.643,2.937,0
1.644,2.937,0
1.645,2.937,0
1.646,2.937,0
1.647,2.937,0
1.648,2.937,0
1.649,2.937,0
1.65,2.937,0
1.651,2.936,0
1.652,2.936,0
1.653,2.936,0
1.654,2.936,0
1.655,2.936,0
1.656,2.936,0
1.657,2.936,0
1.658,2.936,0
1.659,2.935,0
1.66,2.935,0
1.661,2.935,0
1.662,2.935,0
